# Uniform free energy profile and its derivatives
# kT = 1.35000000e+00 mu = -2.69000000e+00
# rho         omega         domega        d2omega
1.00000000e-02 -2.94773043e-02 -1.98014825e+00 9.35451034e+01
1.10000000e-02 -3.14122666e-02 -1.89128864e+00 8.44628607e+01
1.20000000e-02 -3.32626404e-02 -1.81071915e+00 7.68957917e+01
1.30000000e-02 -3.50360217e-02 -1.73710963e+00 7.04942462e+01
1.40000000e-02 -3.67388326e-02 -1.66942612e+00 6.50084740e+01
1.50000000e-02 -3.83765743e-02 -1.60684897e+00 6.02553249e+01
1.60000000e-02 -3.99540111e-02 -1.54871741e+00 5.60974364e+01
1.70000000e-02 -4.14753098e-02 -1.49449095e+00 5.24297666e+01
1.80000000e-02 -4.29441447e-02 -1.44372189e+00 4.91706162e+01
1.90000000e-02 -4.43637804e-02 -1.39603519e+00 4.62554857e+01
2.00000000e-02 -4.57371362e-02 -1.35111355e+00 4.36327757e+01
2.10000000e-02 -4.70668385e-02 -1.30868617e+00 4.12607150e+01
2.20000000e-02 -4.83552620e-02 -1.26852003e+00 3.91051276e+01
2.30000000e-02 -4.96045647e-02 -1.23041322e+00 3.71377807e+01
2.40000000e-02 -5.08167159e-02 -1.19418961e+00 3.53351472e+01
2.50000000e-02 -5.19935199e-02 -1.15969464e+00 3.36774645e+01
2.60000000e-02 -5.31366358e-02 -1.12679196e+00 3.21480101e+01
2.70000000e-02 -5.42475942e-02 -1.09536065e+00 3.07325390e+01
2.80000000e-02 -5.53278115e-02 -1.06529298e+00 2.94188415e+01
2.90000000e-02 -5.63786024e-02 -1.03649257e+00 2.81963916e+01
3.00000000e-02 -5.74011901e-02 -1.00887283e+00 2.70560671e+01
3.10000000e-02 -5.83967156e-02 -9.82355716e-01 2.59899225e+01
3.20000000e-02 -5.93662455e-02 -9.56870588e-01 2.49910060e+01
3.30000000e-02 -6.03107793e-02 -9.32353339e-01 2.40532080e+01
3.40000000e-02 -6.12312553e-02 -9.08745603e-01 2.31711379e+01
3.50000000e-02 -6.21285559e-02 -8.85994085e-01 2.23400211e+01
3.60000000e-02 -6.30035125e-02 -8.64049996e-01 2.15556137e+01
3.70000000e-02 -6.38569100e-02 -8.42868554e-01 2.08141303e+01
3.80000000e-02 -6.46894901e-02 -8.22408560e-01 2.01121843e+01
3.90000000e-02 -6.55019549e-02 -8.02632023e-01 1.94467361e+01
4.00000000e-02 -6.62949702e-02 -7.83503837e-01 1.88150504e+01
4.10000000e-02 -6.70691679e-02 -7.64991493e-01 1.82146586e+01
4.20000000e-02 -6.78251484e-02 -7.47064835e-01 1.76433272e+01
4.30000000e-02 -6.85634834e-02 -7.29695830e-01 1.70990305e+01
4.40000000e-02 -6.92847172e-02 -7.12858378e-01 1.65799270e+01
4.50000000e-02 -6.99893692e-02 -6.96528139e-01 1.60843389e+01
4.60000000e-02 -7.06779350e-02 -6.80682374e-01 1.56107343e+01
4.70000000e-02 -7.13508883e-02 -6.65299811e-01 1.51577115e+01
4.80000000e-02 -7.20086824e-02 -6.50360519e-01 1.47239859e+01
4.90000000e-02 -7.26517509e-02 -6.35845801e-01 1.43083777e+01
5.00000000e-02 -7.32805096e-02 -6.21738088e-01 1.39098012e+01
5.10000000e-02 -7.38953572e-02 -6.08020855e-01 1.35272563e+01
5.20000000e-02 -7.44966763e-02 -5.94678540e-01 1.31598196e+01
5.30000000e-02 -7.50848344e-02 -5.81696465e-01 1.28066373e+01
5.40000000e-02 -7.56601847e-02 -5.69060778e-01 1.24669191e+01
5.50000000e-02 -7.62230670e-02 -5.56758384e-01 1.21399320e+01
5.60000000e-02 -7.67738084e-02 -5.44776897e-01 1.18249955e+01
5.70000000e-02 -7.73127239e-02 -5.33104588e-01 1.15214767e+01
5.80000000e-02 -7.78401169e-02 -5.21730335e-01 1.12287864e+01
5.90000000e-02 -7.83562804e-02 -5.10643589e-01 1.09463755e+01
6.00000000e-02 -7.88614966e-02 -4.99834329e-01 1.06737313e+01
6.10000000e-02 -7.93560383e-02 -4.89293031e-01 1.04103749e+01
6.20000000e-02 -7.98401689e-02 -4.79010633e-01 1.01558582e+01
6.30000000e-02 -8.03141430e-02 -4.68978508e-01 9.90976161e+00
6.40000000e-02 -8.07782066e-02 -4.59188434e-01 9.67169169e+00
6.50000000e-02 -8.12325979e-02 -4.49632572e-01 9.44127930e+00
6.60000000e-02 -8.16775474e-02 -4.40303439e-01 9.21817765e+00
6.70000000e-02 -8.21132780e-02 -4.31193889e-01 9.00206066e+00
6.80000000e-02 -8.25400061e-02 -4.22297092e-01 8.79262143e+00
6.90000000e-02 -8.29579409e-02 -4.13606517e-01 8.58957086e+00
7.00000000e-02 -8.33672857e-02 -4.05115912e-01 8.39263638e+00
7.10000000e-02 -8.37682374e-02 -3.96819291e-01 8.20156078e+00
7.20000000e-02 -8.41609871e-02 -3.88710918e-01 8.01610113e+00
7.30000000e-02 -8.45457202e-02 -3.80785293e-01 7.83602785e+00
7.40000000e-02 -8.49226168e-02 -3.73037140e-01 7.66112373e+00
7.50000000e-02 -8.52918519e-02 -3.65461392e-01 7.49118319e+00
7.60000000e-02 -8.56535954e-02 -3.58053184e-01 7.32601145e+00
7.70000000e-02 -8.60080126e-02 -3.50807841e-01 7.16542386e+00
7.80000000e-02 -8.63552639e-02 -3.43720867e-01 7.00924524e+00
7.90000000e-02 -8.66955056e-02 -3.36787936e-01 6.85730931e+00
8.00000000e-02 -8.70288897e-02 -3.30004886e-01 6.70945807e+00
8.10000000e-02 -8.73555640e-02 -3.23367709e-01 6.56554135e+00
8.20000000e-02 -8.76756725e-02 -3.16872540e-01 6.42541630e+00
8.30000000e-02 -8.79893552e-02 -3.10515657e-01 6.28894698e+00
8.40000000e-02 -8.82967487e-02 -3.04293471e-01 6.15600390e+00
8.50000000e-02 -8.85979859e-02 -2.98202515e-01 6.02646369e+00
8.60000000e-02 -8.88931964e-02 -2.92239448e-01 5.90020871e+00
8.70000000e-02 -8.91825063e-02 -2.86401040e-01 5.77712673e+00
8.80000000e-02 -8.94660390e-02 -2.80684173e-01 5.65711064e+00
8.90000000e-02 -8.97439142e-02 -2.75085831e-01 5.54005813e+00
9.00000000e-02 -9.00162491e-02 -2.69603101e-01 5.42587148e+00
9.10000000e-02 -9.02831580e-02 -2.64233164e-01 5.31445721e+00
9.20000000e-02 -9.05447522e-02 -2.58973293e-01 5.20572596e+00
9.30000000e-02 -9.08011404e-02 -2.53820847e-01 5.09959220e+00
9.40000000e-02 -9.10524288e-02 -2.48773270e-01 4.99597403e+00
9.50000000e-02 -9.12987211e-02 -2.43828086e-01 4.89479303e+00
9.60000000e-02 -9.15401183e-02 -2.38982896e-01 4.79597403e+00
9.70000000e-02 -9.17767194e-02 -2.34235375e-01 4.69944498e+00
9.80000000e-02 -9.20086209e-02 -2.29583266e-01 4.60513675e+00
9.90000000e-02 -9.22359170e-02 -2.25024383e-01 4.51298303e+00
1.00000000e-01 -9.24587000e-02 -2.20556603e-01 4.42292017e+00
1.01000000e-01 -9.26770599e-02 -2.16177866e-01 4.33488703e+00
1.02000000e-01 -9.28910847e-02 -2.11886172e-01 4.24882488e+00
1.03000000e-01 -9.31008606e-02 -2.07679578e-01 4.16467726e+00
1.04000000e-01 -9.33064716e-02 -2.03556198e-01 4.08238992e+00
1.05000000e-01 -9.35080001e-02 -1.99514196e-01 4.00191063e+00
1.06000000e-01 -9.37055266e-02 -1.95551790e-01 3.92318919e+00
1.07000000e-01 -9.38991297e-02 -1.91667248e-01 3.84617724e+00
1.08000000e-01 -9.40888865e-02 -1.87858882e-01 3.77082823e+00
1.09000000e-01 -9.42748723e-02 -1.84125052e-01 3.69709733e+00
1.10000000e-01 -9.44571609e-02 -1.80464162e-01 3.62494133e+00
1.11000000e-01 -9.46358244e-02 -1.76874658e-01 3.55431858e+00
1.12000000e-01 -9.48109335e-02 -1.73355027e-01 3.48518894e+00
1.13000000e-01 -9.49825572e-02 -1.69903795e-01 3.41751369e+00
1.14000000e-01 -9.51507634e-02 -1.66519527e-01 3.35125544e+00
1.15000000e-01 -9.53156182e-02 -1.63200824e-01 3.28637815e+00
1.16000000e-01 -9.54771864e-02 -1.59946322e-01 3.22284701e+00
1.17000000e-01 -9.56355318e-02 -1.56754693e-01 3.16062838e+00
1.18000000e-01 -9.57907163e-02 -1.53624639e-01 3.09968981e+00
1.19000000e-01 -9.59428011e-02 -1.50554897e-01 3.03999991e+00
1.20000000e-01 -9.60918458e-02 -1.47544233e-01 2.98152834e+00
1.21000000e-01 -9.62379089e-02 -1.44591444e-01 2.92424579e+00
1.22000000e-01 -9.63810476e-02 -1.41695355e-01 2.86812389e+00
1.23000000e-01 -9.65213181e-02 -1.38854818e-01 2.81313522e+00
1.24000000e-01 -9.66587754e-02 -1.36068715e-01 2.75925323e+00
1.25000000e-01 -9.67934733e-02 -1.33335952e-01 2.70645223e+00
1.26000000e-01 -9.69254647e-02 -1.30655459e-01 2.65470735e+00
1.27000000e-01 -9.70548013e-02 -1.28026193e-01 2.60399450e+00
1.28000000e-01 -9.71815338e-02 -1.25447134e-01 2.55429036e+00
1.29000000e-01 -9.73057120e-02 -1.22917283e-01 2.50557233e+00
1.30000000e-01 -9.74273845e-02 -1.20435668e-01 2.45781851e+00
1.31000000e-01 -9.75465991e-02 -1.18001332e-01 2.41100766e+00
1.32000000e-01 -9.76634026e-02 -1.15613345e-01 2.36511921e+00
1.33000000e-01 -9.77778409e-02 -1.13270793e-01 2.32013319e+00
1.34000000e-01 -9.78899590e-02 -1.10972784e-01 2.27603025e+00
1.35000000e-01 -9.79998011e-02 -1.08718444e-01 2.23279160e+00
1.36000000e-01 -9.81074102e-02 -1.06506919e-01 2.19039902e+00
1.37000000e-01 -9.82128289e-02 -1.04337370e-01 2.14883482e+00
1.38000000e-01 -9.83160987e-02 -1.02208979e-01 2.10808182e+00
1.39000000e-01 -9.84172603e-02 -1.00120942e-01 2.06812334e+00
1.40000000e-01 -9.85163537e-02 -9.80724726e-02 2.02894320e+00
1.41000000e-01 -9.86134182e-02 -9.60628011e-02 1.99052565e+00
1.42000000e-01 -9.87084920e-02 -9.40911722e-02 1.95285542e+00
1.43000000e-01 -9.88016129e-02 -9.21568461e-02 1.91591764e+00
1.44000000e-01 -9.88928179e-02 -9.02590976e-02 1.87969787e+00
1.45000000e-01 -9.89821431e-02 -8.83972157e-02 1.84418209e+00
1.46000000e-01 -9.90696241e-02 -8.65705033e-02 1.80935664e+00
1.47000000e-01 -9.91552956e-02 -8.47782768e-02 1.77520825e+00
1.48000000e-01 -9.92391919e-02 -8.30198655e-02 1.74172400e+00
1.49000000e-01 -9.93213464e-02 -8.12946116e-02 1.70889133e+00
1.50000000e-01 -9.94017919e-02 -7.96018697e-02 1.67669803e+00
1.51000000e-01 -9.94805607e-02 -7.79410064e-02 1.64513220e+00
1.52000000e-01 -9.95576844e-02 -7.63114000e-02 1.61418225e+00
1.53000000e-01 -9.96331938e-02 -7.47124403e-02 1.58383692e+00
1.54000000e-01 -9.97071193e-02 -7.31435283e-02 1.55408523e+00
1.55000000e-01 -9.97794906e-02 -7.16040756e-02 1.52491648e+00
1.56000000e-01 -9.98503370e-02 -7.00935045e-02 1.49632027e+00
1.57000000e-01 -9.99196871e-02 -6.86112476e-02 1.46828646e+00
1.58000000e-01 -9.99875688e-02 -6.71567474e-02 1.44080516e+00
1.59000000e-01 -1.00054010e-01 -6.57294563e-02 1.41386674e+00
1.60000000e-01 -1.00119037e-01 -6.43288361e-02 1.38746182e+00
1.61000000e-01 -1.00182676e-01 -6.29543579e-02 1.36158124e+00
1.62000000e-01 -1.00244954e-01 -6.16055018e-02 1.33621608e+00
1.63000000e-01 -1.00305895e-01 -6.02817568e-02 1.31135765e+00
1.64000000e-01 -1.00365526e-01 -5.89826204e-02 1.28699747e+00
1.65000000e-01 -1.00423869e-01 -5.77075985e-02 1.26312726e+00
1.66000000e-01 -1.00480949e-01 -5.64562053e-02 1.23973894e+00
1.67000000e-01 -1.00536789e-01 -5.52279626e-02 1.21682466e+00
1.68000000e-01 -1.00591412e-01 -5.40224005e-02 1.19437672e+00
1.69000000e-01 -1.00644841e-01 -5.28390563e-02 1.17238763e+00
1.70000000e-01 -1.00697097e-01 -5.16774747e-02 1.15085007e+00
1.71000000e-01 -1.00748203e-01 -5.05372080e-02 1.12975690e+00
1.72000000e-01 -1.00798179e-01 -4.94178151e-02 1.10910114e+00
1.73000000e-01 -1.00847046e-01 -4.83188622e-02 1.08887598e+00
1.74000000e-01 -1.00894823e-01 -4.72399218e-02 1.06907479e+00
1.75000000e-01 -1.00941532e-01 -4.61805734e-02 1.04969106e+00
1.76000000e-01 -1.00987191e-01 -4.51404027e-02 1.03071845e+00
1.77000000e-01 -1.01031819e-01 -4.41190016e-02 1.01215076e+00
1.78000000e-01 -1.01075435e-01 -4.31159682e-02 9.93981953e-01
1.79000000e-01 -1.01118057e-01 -4.21309067e-02 9.76206103e-01
1.80000000e-01 -1.01159703e-01 -4.11634270e-02 9.58817434e-01
1.81000000e-01 -1.01200389e-01 -4.02131446e-02 9.41810298e-01
1.82000000e-01 -1.01240134e-01 -3.92796810e-02 9.25179175e-01
1.83000000e-01 -1.01278954e-01 -3.83626628e-02 9.08918667e-01
1.84000000e-01 -1.01316865e-01 -3.74617219e-02 8.93023500e-01
1.85000000e-01 -1.01353883e-01 -3.65764957e-02 8.77488515e-01
1.86000000e-01 -1.01390023e-01 -3.57066265e-02 8.62308669e-01
1.87000000e-01 -1.01425301e-01 -3.48517616e-02 8.47479029e-01
1.88000000e-01 -1.01459732e-01 -3.40115533e-02 8.32994771e-01
1.89000000e-01 -1.01493329e-01 -3.31856585e-02 8.18851177e-01
1.90000000e-01 -1.01526108e-01 -3.23737389e-02 8.05043631e-01
1.91000000e-01 -1.01558081e-01 -3.15754608e-02 7.91567617e-01
1.92000000e-01 -1.01589263e-01 -3.07904947e-02 7.78418717e-01
1.93000000e-01 -1.01619666e-01 -3.00185157e-02 7.65592607e-01
1.94000000e-01 -1.01649304e-01 -2.92592033e-02 7.53085059e-01
1.95000000e-01 -1.01678189e-01 -2.85122408e-02 7.40891929e-01
1.96000000e-01 -1.01706333e-01 -2.77773160e-02 7.29009167e-01
1.97000000e-01 -1.01733748e-01 -2.70541203e-02 7.17432806e-01
1.98000000e-01 -1.01760445e-01 -2.63423495e-02 7.06158962e-01
1.99000000e-01 -1.01786436e-01 -2.56417029e-02 6.95183833e-01
2.00000000e-01 -1.01811732e-01 -2.49518835e-02 6.84503697e-01
2.01000000e-01 -1.01836343e-01 -2.42725983e-02 6.74114909e-01
2.02000000e-01 -1.01860280e-01 -2.36035578e-02 6.64013901e-01
2.03000000e-01 -1.01883554e-01 -2.29444758e-02 6.54197176e-01
2.04000000e-01 -1.01906173e-01 -2.22950698e-02 6.44661311e-01
2.05000000e-01 -1.01928147e-01 -2.16550607e-02 6.35402953e-01
2.06000000e-01 -1.01949486e-01 -2.10241725e-02 6.26418816e-01
2.07000000e-01 -1.01970198e-01 -2.04021327e-02 6.17705684e-01
2.08000000e-01 -1.01990293e-01 -1.97886718e-02 6.09260403e-01
2.09000000e-01 -1.02009778e-01 -1.91835236e-02 6.01079885e-01
2.10000000e-01 -1.02028663e-01 -1.85864248e-02 5.93161103e-01
2.11000000e-01 -1.02046954e-01 -1.79971152e-02 5.85501091e-01
2.12000000e-01 -1.02064659e-01 -1.74153374e-02 5.78096943e-01
2.13000000e-01 -1.02081787e-01 -1.68408369e-02 5.70945811e-01
2.14000000e-01 -1.02098343e-01 -1.62733623e-02 5.64044903e-01
2.15000000e-01 -1.02114336e-01 -1.57126646e-02 5.57391482e-01
2.16000000e-01 -1.02129771e-01 -1.51584978e-02 5.50982867e-01
2.17000000e-01 -1.02144655e-01 -1.46106182e-02 5.44816427e-01
2.18000000e-01 -1.02158994e-01 -1.40687850e-02 5.38889586e-01
2.19000000e-01 -1.02172794e-01 -1.35327600e-02 5.33199816e-01
2.20000000e-01 -1.02186062e-01 -1.30023072e-02 5.27744640e-01
2.21000000e-01 -1.02198801e-01 -1.24771933e-02 5.22521628e-01
2.22000000e-01 -1.02211018e-01 -1.19571874e-02 5.17528397e-01
2.23000000e-01 -1.02222717e-01 -1.14420607e-02 5.12762612e-01
2.24000000e-01 -1.02233903e-01 -1.09315871e-02 5.08221981e-01
2.25000000e-01 -1.02244582e-01 -1.04255425e-02 5.03904259e-01
2.26000000e-01 -1.02254756e-01 -9.92370500e-03 4.99807241e-01
2.27000000e-01 -1.02264430e-01 -9.42585512e-03 4.95928766e-01
2.28000000e-01 -1.02273609e-01 -8.93177533e-03 4.92266714e-01
2.29000000e-01 -1.02282295e-01 -8.44125025e-03 4.88819006e-01
2.30000000e-01 -1.02290492e-01 -7.95406655e-03 4.85583602e-01
2.31000000e-01 -1.02298204e-01 -7.47001294e-03 4.82558501e-01
2.32000000e-01 -1.02305433e-01 -6.98888010e-03 4.79741741e-01
2.33000000e-01 -1.02312183e-01 -6.51046066e-03 4.77131394e-01
2.34000000e-01 -1.02318455e-01 -6.03454914e-03 4.74725573e-01
2.35000000e-01 -1.02324253e-01 -5.56094195e-03 4.72522422e-01
2.36000000e-01 -1.02329578e-01 -5.08943734e-03 4.70520124e-01
2.37000000e-01 -1.02334432e-01 -4.61983535e-03 4.68716892e-01
2.38000000e-01 -1.02338818e-01 -4.15193779e-03 4.67110977e-01
2.39000000e-01 -1.02342737e-01 -3.68554820e-03 4.65700659e-01
2.40000000e-01 -1.02346189e-01 -3.22047183e-03 4.64484252e-01
2.41000000e-01 -1.02349178e-01 -2.75651561e-03 4.63460102e-01
2.42000000e-01 -1.02351703e-01 -2.29348809e-03 4.62626583e-01
2.43000000e-01 -1.02353765e-01 -1.83119943e-03 4.61982104e-01
2.44000000e-01 -1.02355365e-01 -1.36946139e-03 4.61525099e-01
2.45000000e-01 -1.02356504e-01 -9.08087254e-04 4.61254033e-01
2.46000000e-01 -1.02357182e-01 -4.46891845e-04 4.61167399e-01
2.47000000e-01 -1.02357398e-01 1.43085291e-05 4.61263720e-01
2.48000000e-01 -1.02357153e-01 4.75696095e-04 4.61541543e-01
2.49000000e-01 -1.02356446e-01 9.37451642e-04 4.61999445e-01
2.50000000e-01 -1.02355278e-01 1.39975454e-03 4.62636026e-01
2.51000000e-01 -1.02353647e-01 1.86278280e-03 4.63449915e-01
2.52000000e-01 -1.02351552e-01 2.32671303e-03 4.64439764e-01
2.53000000e-01 -1.02348993e-01 2.79172054e-03 4.65604252e-01
2.54000000e-01 -1.02345968e-01 3.25797931e-03 4.66942080e-01
2.55000000e-01 -1.02342476e-01 3.72566205e-03 4.68451974e-01
2.56000000e-01 -1.02338516e-01 4.19494020e-03 4.70132684e-01
2.57000000e-01 -1.02334086e-01 4.66598395e-03 4.71982983e-01
2.58000000e-01 -1.02329184e-01 5.13896229e-03 4.74001666e-01
2.59000000e-01 -1.02323807e-01 5.61404301e-03 4.76187550e-01
2.60000000e-01 -1.02317955e-01 6.09139274e-03 4.78539473e-01
2.61000000e-01 -1.02311624e-01 6.57117693e-03 4.81056297e-01
2.62000000e-01 -1.02304812e-01 7.05355993e-03 4.83736903e-01
2.63000000e-01 -1.02297516e-01 7.53870496e-03 4.86580193e-01
2.64000000e-01 -1.02289733e-01 8.02677418e-03 4.89585089e-01
2.65000000e-01 -1.02281461e-01 8.51792865e-03 4.92750533e-01
2.66000000e-01 -1.02272696e-01 9.01232841e-03 4.96075487e-01
2.67000000e-01 -1.02263435e-01 9.51013246e-03 4.99558932e-01
2.68000000e-01 -1.02253675e-01 1.00114988e-02 5.03199867e-01
2.69000000e-01 -1.02243411e-01 1.05165844e-02 5.06997310e-01
2.70000000e-01 -1.02232640e-01 1.10255452e-02 5.10950298e-01
2.71000000e-01 -1.02221359e-01 1.15385365e-02 5.15057884e-01
2.72000000e-01 -1.02209562e-01 1.20557122e-02 5.19319142e-01
2.73000000e-01 -1.02197246e-01 1.25772257e-02 5.23733158e-01
2.74000000e-01 -1.02184406e-01 1.31032292e-02 5.28299040e-01
2.75000000e-01 -1.02171038e-01 1.36338741e-02 5.33015909e-01
2.76000000e-01 -1.02157137e-01 1.41693110e-02 5.37882905e-01
2.77000000e-01 -1.02142698e-01 1.47096897e-02 5.42899182e-01
2.78000000e-01 -1.02127716e-01 1.52551589e-02 5.48063912e-01
2.79000000e-01 -1.02112185e-01 1.58058667e-02 5.53376281e-01
2.80000000e-01 -1.02096102e-01 1.63619604e-02 5.58835490e-01
2.81000000e-01 -1.02079460e-01 1.69235864e-02 5.64440756e-01
2.82000000e-01 -1.02062253e-01 1.74908903e-02 5.70191311e-01
2.83000000e-01 -1.02044476e-01 1.80640172e-02 5.76086400e-01
2.84000000e-01 -1.02026123e-01 1.86431111e-02 5.82125285e-01
2.85000000e-01 -1.02007188e-01 1.92283154e-02 5.88307240e-01
2.86000000e-01 -1.01987664e-01 1.98197730e-02 5.94631552e-01
2.87000000e-01 -1.01967546e-01 2.04176258e-02 6.01097525e-01
2.88000000e-01 -1.01946827e-01 2.10220150e-02 6.07704473e-01
2.89000000e-01 -1.01925500e-01 2.16330815e-02 6.14451726e-01
2.90000000e-01 -1.01903558e-01 2.22509650e-02 6.21338625e-01
2.91000000e-01 -1.01880996e-01 2.28758051e-02 6.28364524e-01
2.92000000e-01 -1.01857804e-01 2.35077402e-02 6.35528790e-01
2.93000000e-01 -1.01833978e-01 2.41469085e-02 6.42830803e-01
2.94000000e-01 -1.01809508e-01 2.47934475e-02 6.50269955e-01
2.95000000e-01 -1.01784388e-01 2.54474940e-02 6.57845650e-01
2.96000000e-01 -1.01758611e-01 2.61091841e-02 6.65557302e-01
2.97000000e-01 -1.01732167e-01 2.67786537e-02 6.73404340e-01
2.98000000e-01 -1.01705051e-01 2.74560378e-02 6.81386201e-01
2.99000000e-01 -1.01677253e-01 2.81414709e-02 6.89502336e-01
3.00000000e-01 -1.01648765e-01 2.88350870e-02 6.97752207e-01
3.01000000e-01 -1.01619580e-01 2.95370197e-02 7.06135285e-01
3.02000000e-01 -1.01589688e-01 3.02474018e-02 7.14651054e-01
3.03000000e-01 -1.01559082e-01 3.09663659e-02 7.23299006e-01
3.04000000e-01 -1.01527752e-01 3.16940437e-02 7.32078647e-01
3.05000000e-01 -1.01495691e-01 3.24305669e-02 7.40989491e-01
3.06000000e-01 -1.01462888e-01 3.31760663e-02 7.50031062e-01
3.07000000e-01 -1.01429336e-01 3.39306724e-02 7.59202896e-01
3.08000000e-01 -1.01395024e-01 3.46945153e-02 7.68504536e-01
3.09000000e-01 -1.01359944e-01 3.54677246e-02 7.77935539e-01
3.10000000e-01 -1.01324085e-01 3.62504294e-02 7.87495467e-01
3.11000000e-01 -1.01287440e-01 3.70427584e-02 7.97183895e-01
3.12000000e-01 -1.01249997e-01 3.78448399e-02 8.07000406e-01
3.13000000e-01 -1.01211747e-01 3.86568018e-02 8.16944591e-01
3.14000000e-01 -1.01172680e-01 3.94787715e-02 8.27016053e-01
3.15000000e-01 -1.01132786e-01 4.03108762e-02 8.37214402e-01
3.16000000e-01 -1.01092054e-01 4.11532425e-02 8.47539257e-01
3.17000000e-01 -1.01050476e-01 4.20059967e-02 8.57990246e-01
3.18000000e-01 -1.01008039e-01 4.28692649e-02 8.68567006e-01
3.19000000e-01 -1.00964734e-01 4.37431725e-02 8.79269182e-01
3.20000000e-01 -1.00920549e-01 4.46278449e-02 8.90096428e-01
3.21000000e-01 -1.00875474e-01 4.55234070e-02 9.01048405e-01
3.22000000e-01 -1.00829498e-01 4.64299832e-02 9.12124785e-01
3.23000000e-01 -1.00782611e-01 4.73476979e-02 9.23325245e-01
3.24000000e-01 -1.00734799e-01 4.82766749e-02 9.34649472e-01
3.25000000e-01 -1.00686053e-01 4.92170380e-02 9.46097159e-01
3.26000000e-01 -1.00636361e-01 5.01689103e-02 9.57668009e-01
3.27000000e-01 -1.00585712e-01 5.11324150e-02 9.69361731e-01
3.28000000e-01 -1.00534093e-01 5.21076746e-02 9.81178043e-01
3.29000000e-01 -1.00481492e-01 5.30948118e-02 9.93116668e-01
3.30000000e-01 -1.00427899e-01 5.40939487e-02 1.00517734e+00
