
# Runs at high temperature 
# Performed using numeric weights and the old shift of 1e-6 in density init
# also used different interpolation schemes
# See earlier versions of the code from April 2020
# The data is however very similar to what we compute with recent code

1.52000000e+00 	8.82529218e-01 	9.80333874e-01 	4.26413550e+00 	-4.99549788e+00 	1.27831216e+02 	1.11630843e-04 	7.58828055e+01 	
1.54000000e+00 	8.85712482e-01 	9.82800773e-01 	4.43047088e+00 	-5.10419279e+00 	1.27724613e+02 	1.07156660e-04 	7.62668030e+01 	
1.56000000e+00 	8.88822663e-01 	9.85310965e-01 	4.59294260e+00 	-5.21096291e+00 	1.27616537e+02 	1.03550025e-04 	7.67009191e+01 	
1.58000000e+00 	8.91721799e-01 	9.87409337e-01 	4.74647771e+00 	-5.31119841e+00 	1.27526178e+02 	1.00907189e-04 	7.67337172e+01 	
1.60000000e+00 	8.94730565e-01 	9.89443688e-01 	4.90259894e+00 	-5.41509563e+00 	1.27438714e+02 	9.73306176e-05 	7.68061931e+01 	
1.62000000e+00 	8.97698246e-01 	9.91515816e-01 	5.05598279e+00 	-5.51788065e+00 	1.27349851e+02 	9.37096877e-05 	7.69265063e+01 	
1.64000000e+00 	9.00595209e-01 	9.93556453e-01 	5.20555519e+00 	-5.61853593e+00 	1.27262525e+02 	9.06166165e-05 	7.70261924e+01 	
1.66000000e+00 	9.03475719e-01 	9.95625734e-01 	5.35334011e+00 	-5.71883235e+00 	1.27174256e+02 	8.73214978e-05 	7.71797796e+01 	
1.68000000e+00 	9.06314854e-01 	9.97739556e-01 	5.49845580e+00 	-5.81793431e+00 	1.27084400e+02 	8.43375622e-05 	7.73872853e+01 	
1.70000000e+00 	9.09113072e-01 	9.99898686e-01 	5.64094297e+00 	-5.91583435e+00 	1.26992995e+02 	8.12577423e-05 	7.76651725e+01 	
1.72000000e+00 	9.11870639e-01 	1.00210182e+00 	5.78083614e+00 	-6.01252131e+00 	1.26900089e+02 	7.84641237e-05 	7.79946887e+01 	
1.74000000e+00 	9.14604393e-01 	1.00440155e+00 	5.91880509e+00 	-6.10856624e+00 	1.26803523e+02 	7.55162027e-05 	7.84411485e+01 	
1.76000000e+00 	9.17279634e-01 	1.00674502e+00 	6.05354260e+00 	-6.20273613e+00 	1.26705463e+02 	7.29988017e-05 	7.89264632e+01 	
1.78000000e+00 	9.19913498e-01 	1.00912769e+00 	6.18571879e+00 	-6.29560224e+00 	1.26606059e+02 	7.06782806e-05 	7.94568454e+01 	
1.80000000e+00 	9.22363133e-01 	1.01093689e+00 	6.30975260e+00 	-6.38198118e+00 	1.26530412e+02 	6.91053787e-05 	7.94299446e+01 	
1.82000000e+00 	9.24926621e-01 	1.01292432e+00 	6.43730184e+00 	-6.47256917e+00 	1.26447606e+02 	6.66243591e-05 	7.96464472e+01 	
1.84000000e+00 	9.27462740e-01 	1.01494450e+00 	6.56291422e+00 	-6.56232693e+00 	1.26363631e+02 	6.43295479e-05 	7.98985550e+01 	
1.86000000e+00 	9.29918005e-01 	1.01680022e+00 	6.68446757e+00 	-6.64924894e+00 	1.26286568e+02 	6.26717189e-05 	8.00049092e+01 	
1.88000000e+00 	9.32393486e-01 	1.01872945e+00 	6.80600151e+00 	-6.73705371e+00 	1.26206715e+02 	6.04716450e-05 	8.02109319e+01 	
1.90000000e+00 	9.34839447e-01 	1.02069284e+00 	6.92556940e+00 	-6.82390901e+00 	1.26125701e+02 	5.84028690e-05 	8.04687064e+01 	
1.92000000e+00 	9.37255969e-01 	1.02269057e+00 	7.04318913e+00 	-6.90980217e+00 	1.26043556e+02 	5.65440897e-05 	8.07763611e+01 	
1.94000000e+00 	9.39643027e-01 	1.02472233e+00 	7.15887705e+00 	-6.99472073e+00 	1.25960312e+02 	5.47952992e-05 	8.11359662e+01 	
1.96000000e+00 	9.42000398e-01 	1.02678747e+00 	7.27264022e+00 	-7.07864428e+00 	1.25876001e+02 	5.30019236e-05 	8.15454588e+01 	
1.98000000e+00 	9.44346934e-01 	1.02895895e+00 	7.38527185e+00 	-7.16229522e+00 	1.25787708e+02 	5.12989589e-05 	8.20791716e+01 	
2.00000000e+00 	9.46642921e-01 	1.03113943e+00 	7.49515156e+00 	-7.24412018e+00 	1.25699315e+02 	4.97853706e-05 	8.26222245e+01 	
2.02000000e+00 	9.48770448e-01 	1.03312229e+00 	7.59736172e+00 	-7.31942327e+00 	1.25619026e+02 	4.88739303e-05 	8.29113960e+01 	
2.04000000e+00 	9.51006807e-01 	1.03499456e+00 	7.70344008e+00 	-7.39910925e+00 	1.25543269e+02 	4.72958316e-05 	8.31902513e+01 	
2.06000000e+00 	9.53224088e-01 	1.03688139e+00 	7.80811445e+00 	-7.47817246e+00 	1.25467074e+02 	4.59283828e-05 	8.34921539e+01 	
2.08000000e+00 	9.55417229e-01 	1.03880392e+00 	7.91118091e+00 	-7.55639633e+00 	1.25389617e+02 	4.45079593e-05 	8.38350798e+01 	
2.10000000e+00 	9.57512591e-01 	1.04046342e+00 	8.00952684e+00 	-7.63078014e+00 	1.25322753e+02 	4.34489640e-05 	8.39131799e+01 	
2.12000000e+00 	9.59661503e-01 	1.04223235e+00 	8.10957144e+00 	-7.70744103e+00 	1.25251698e+02 	4.20766157e-05 	8.41456054e+01 	
2.14000000e+00 	9.61789388e-01 	1.04402734e+00 	8.20818478e+00 	-7.78337249e+00 	1.25179784e+02 	4.08360028e-05 	8.44135466e+01 	
2.16000000e+00 	9.63896166e-01 	1.04584884e+00 	8.30537270e+00 	-7.85856066e+00 	1.25107028e+02 	3.95360785e-05 	8.47267034e+01 	
2.18000000e+00 	9.65981713e-01 	1.04769680e+00 	8.40114180e+00 	-7.93299375e+00 	1.25033449e+02 	3.83790954e-05 	8.50834326e+01 	
2.20000000e+00 	9.68046083e-01 	1.04957086e+00 	8.49550613e+00 	-8.00666762e+00 	1.24959070e+02 	3.72366092e-05 	8.54798266e+01 	
2.22000000e+00 	9.70088987e-01 	1.05147042e+00 	8.58846408e+00 	-8.07956341e+00 	1.24883916e+02 	3.62224717e-05 	8.59189051e+01 	
2.24000000e+00 	9.72129390e-01 	1.05346038e+00 	8.68085407e+00 	-8.15247905e+00 	1.24805477e+02 	3.53518110e-05 	8.64747999e+01 	
2.26000000e+00 	9.74126997e-01 	1.05545280e+00 	8.77092954e+00 	-8.22370220e+00 	1.24727165e+02 	3.44403213e-05 	8.70302967e+01 	
2.28000000e+00 	9.76101961e-01 	1.05746645e+00 	8.85957440e+00 	-8.29407334e+00 	1.24648217e+02 	3.36446506e-05 	8.76159127e+01 	
2.30000000e+00 	9.77934876e-01 	1.05908015e+00 	8.94152738e+00 	-8.35843200e+00 	1.24584854e+02 	3.30270707e-05 	8.77324128e+01 	
2.32000000e+00 	9.79867612e-01 	1.06085062e+00 	9.02745093e+00 	-8.42717765e+00 	1.24515546e+02 	3.21293303e-05 	8.80887904e+01 	
2.34000000e+00 	9.81787710e-01 	1.06264168e+00 	9.11241781e+00 	-8.49549105e+00 	1.24445567e+02 	3.13165459e-05 	8.84765936e+01 	
2.36000000e+00 	9.83589952e-01 	1.06420828e+00 	9.19174680e+00 	-8.55875495e+00 	1.24384353e+02 	3.07518482e-05 	8.85916972e+01 	
2.38000000e+00 	9.85476685e-01 	1.06580623e+00 	9.27444774e+00 	-8.62580814e+00 	1.24322036e+02 	2.99321230e-05 	8.88089618e+01 	
2.40000000e+00 	9.87348204e-01 	1.06742439e+00 	9.35610589e+00 	-8.69230600e+00 	1.24259067e+02 	2.90578004e-05 	8.90599202e+01 	
2.42000000e+00 	9.89204284e-01 	1.06906265e+00 	9.43671786e+00 	-8.75823235e+00 	1.24195458e+02 	2.83478691e-05 	8.93428568e+01 	
2.44000000e+00 	9.91044884e-01 	1.07072131e+00 	9.51629013e+00 	-8.82358166e+00 	1.24131225e+02 	2.76253575e-05 	8.96610555e+01 	
2.46000000e+00 	9.92869704e-01 	1.07240042e+00 	9.59481696e+00 	-8.88833651e+00 	1.24066382e+02 	2.69361946e-05 	9.00157497e+01 	
2.48000000e+00 	9.94678740e-01 	1.07409980e+00 	9.67230610e+00 	-8.95249308e+00 	1.24000942e+02 	2.62881464e-05 	9.04055939e+01 	
2.50000000e+00 	9.96471497e-01 	1.07581929e+00 	9.74874181e+00 	-9.01602444e+00 	1.23934919e+02 	2.56493400e-05 	9.08313326e+01 	
2.52000000e+00 	9.98266588e-01 	1.07758830e+00 	9.82498058e+00 	-9.07977437e+00 	1.23867203e+02 	2.50716894e-05 	9.13377817e+01 	
2.54000000e+00 	1.00002529e+00 	1.07938280e+00 	9.89926356e+00 	-9.14197778e+00 	1.23798721e+02 	2.45651650e-05 	9.18685475e+01 	
2.56000000e+00 	1.00176665e+00 	1.08119452e+00 	9.97246317e+00 	-9.20349291e+00 	1.23729758e+02 	2.40635844e-05 	9.24274568e+01 	
2.58000000e+00 	1.00349018e+00 	1.08302287e+00 	1.00445627e+01 	-9.26429240e+00 	1.23660317e+02 	2.36684612e-05 	9.30099918e+01 	
2.60000000e+00 	1.00509052e+00 	1.08452231e+00 	1.01107067e+01 	-9.31948519e+00 	1.23603300e+02 	2.32860859e-05 	9.31678699e+01 	
2.62000000e+00 	1.00677895e+00 	1.08616566e+00 	1.01806343e+01 	-9.37884195e+00 	1.23540987e+02 	2.27773650e-05 	9.35628574e+01 	
2.64000000e+00 	1.00845804e+00 	1.08782609e+00 	1.02498899e+01 	-9.43787943e+00 	1.23478137e+02 	2.22806607e-05 	9.39857198e+01 	
2.66000000e+00 	1.00999696e+00 	1.08927874e+00 	1.03123645e+01 	-9.49042784e+00 	1.23423143e+02 	2.20057857e-05 	9.41058808e+01 	
2.68000000e+00 	1.01164976e+00 	1.09071917e+00 	1.03798519e+01 	-9.54838119e+00 	1.23368673e+02 	2.15017023e-05 	9.43136875e+01 	
2.70000000e+00 	1.01329059e+00 	1.09217463e+00 	1.04465623e+01 	-9.60588408e+00 	1.23313727e+02 	2.10494456e-05 	9.45487869e+01 	
2.72000000e+00 	1.01491961e+00 	1.09364573e+00 	1.05124909e+01 	-9.66292820e+00 	1.23258299e+02 	2.05154934e-05 	9.48091738e+01 	
2.74000000e+00 	1.01653680e+00 	1.09513245e+00 	1.05776420e+01 	-9.71951002e+00 	1.23202395e+02 	2.00585151e-05 	9.50972318e+01 	
2.76000000e+00 	1.01814196e+00 	1.09663490e+00 	1.06420112e+01 	-9.77561718e+00 	1.23146023e+02 	1.97171961e-05 	9.54159824e+01 	
2.78000000e+00 	1.01973487e+00 	1.09815331e+00 	1.07055939e+01 	-9.83123749e+00 	1.23089194e+02 	1.93007671e-05 	9.57651075e+01 	
2.80000000e+00 	1.02131544e+00 	1.09968751e+00 	1.07683895e+01 	-9.88636297e+00 	1.23031918e+02 	1.89105717e-05 	9.61443760e+01 	
2.82000000e+00 	1.02288351e+00 	1.10123742e+00 	1.08303960e+01 	-9.94098388e+00 	1.22974202e+02 	1.85677003e-05 	9.65542159e+01 	
2.84000000e+00 	1.02443899e+00 	1.10280288e+00 	1.08916125e+01 	-9.99509229e+00 	1.22916055e+02 	1.82876106e-05 	9.69933055e+01 	
2.86000000e+00 	1.02599881e+00 	1.10441639e+00 	1.09528461e+01 	-1.00495092e+01 	1.22856302e+02 	1.78821171e-05 	9.75155648e+01 	
2.88000000e+00 	1.02752825e+00 	1.10603970e+00 	1.10124558e+01 	-1.01025447e+01 	1.22796337e+02 	1.75900497e-05 	9.80402635e+01 	
2.90000000e+00 	1.02904451e+00 	1.10767681e+00 	1.10712596e+01 	-1.01550301e+01 	1.22735999e+02 	1.72498827e-05 	9.85911854e+01 	
2.92000000e+00 	1.03054748e+00 	1.10932697e+00 	1.11292552e+01 	-1.02069563e+01 	1.22675303e+02 	1.69898439e-05 	9.91596221e+01 	
2.94000000e+00 	1.03194591e+00 	1.11072597e+00 	1.11820850e+01 	-1.02538185e+01 	1.22623805e+02 	1.67941836e-05 	9.93644150e+01 	
2.96000000e+00 	1.03342054e+00 	1.11223872e+00 	1.12383854e+01 	-1.03045183e+01 	1.22568257e+02 	1.64673897e-05 	9.97831343e+01 	
2.98000000e+00 	1.03488950e+00 	1.11376553e+00 	1.12942503e+01 	-1.03550236e+01 	1.22512281e+02 	1.61596083e-05 	1.00223883e+02 	
3.00000000e+00 	1.03634721e+00 	1.11530888e+00 	1.13494190e+01 	-1.04050600e+01 	1.22455789e+02 	1.58664195e-05 	1.00688217e+02 	
3.02000000e+00 	1.03764224e+00 	1.11644345e+00 	1.13966105e+01 	-1.04470647e+01 	1.22414136e+02 	1.57318969e-05 	1.00571951e+02 	
3.04000000e+00 	1.03908057e+00 	1.11774495e+00 	1.14505404e+01 	-1.04962964e+01 	1.22366496e+02 	1.54564430e-05 	1.00780146e+02 	
3.06000000e+00 	1.04051052e+00 	1.11905830e+00 	1.15039174e+01 	-1.05451900e+01 	1.22318497e+02 	1.51565619e-05 	1.01010664e+02 	
3.08000000e+00 	1.04193161e+00 	1.12038360e+00 	1.15567264e+01 	-1.05937262e+01 	1.22270139e+02 	1.48937703e-05 	1.01261527e+02 	
3.10000000e+00 	1.04334378e+00 	1.12172092e+00 	1.16089690e+01 	-1.06419018e+01 	1.22221428e+02 	1.46453003e-05 	1.01537574e+02 	
3.12000000e+00 	1.04474683e+00 	1.12307040e+00 	1.16606380e+01 	-1.06897041e+01 	1.22172368e+02 	1.44457145e-05 	1.01837963e+02 	
3.14000000e+00 	1.04614061e+00 	1.12443223e+00 	1.17117299e+01 	-1.07371248e+01 	1.22122964e+02 	1.41760988e-05 	1.02160836e+02 	
3.16000000e+00 	1.04752518e+00 	1.12580627e+00 	1.17622503e+01 	-1.07841648e+01 	1.22073223e+02 	1.39722265e-05 	1.02512775e+02 	
3.18000000e+00 	1.04890032e+00 	1.12719258e+00 	1.18121914e+01 	-1.08308113e+01 	1.22023150e+02 	1.37393134e-05 	1.02888285e+02 	
3.20000000e+00 	1.05026607e+00 	1.12859106e+00 	1.18615569e+01 	-1.08770636e+01 	1.21972751e+02 	1.35488383e-05 	1.03289477e+02 	
3.22000000e+00 	1.05162225e+00 	1.13000182e+00 	1.19103422e+01 	-1.09229120e+01 	1.21922029e+02 	1.33085519e-05 	1.03715966e+02 	
3.24000000e+00 	1.05298357e+00 	1.13144743e+00 	1.19592680e+01 	-1.09691111e+01 	1.21870183e+02 	1.30920003e-05 	1.04211148e+02 	
3.26000000e+00 	1.05431999e+00 	1.13290287e+00 	1.20068685e+01 	-1.10141136e+01 	1.21818105e+02 	1.29210296e-05 	1.04711345e+02 	
3.28000000e+00 	1.05564666e+00 	1.13436938e+00 	1.20538876e+01 	-1.10586975e+01 	1.21765739e+02 	1.27627531e-05 	1.05230073e+02 	
3.30000000e+00 	1.05696313e+00 	1.13584665e+00 	1.21003039e+01 	-1.11028360e+01 	1.21713088e+02 	1.25916015e-05 	1.05765950e+02 	
3.32000000e+00 	1.05819152e+00 	1.13719180e+00 	1.21422951e+01 	-1.11424787e+01 	1.21665170e+02 	1.24710401e-05 	1.06063588e+02 	
3.34000000e+00 	1.05948455e+00 	1.13857254e+00 	1.21873636e+01 	-1.11855585e+01 	1.21616053e+02 	1.22602742e-05 	1.06486483e+02 	
3.36000000e+00 	1.06077427e+00 	1.13996087e+00 	1.22321710e+01 	-1.12285410e+01 	1.21566732e+02 	1.20988799e-05 	1.06926567e+02 	
3.38000000e+00 	1.06205563e+00 	1.14136199e+00 	1.22764742e+01 	-1.12711660e+01 	1.21517031e+02 	1.19404655e-05 	1.07381969e+02 	
3.40000000e+00 	1.06332807e+00 	1.14277563e+00 	1.23202489e+01 	-1.13134042e+01 	1.21466957e+02 	1.17793918e-05 	1.07856557e+02 	
3.42000000e+00 	1.06441580e+00 	1.14374113e+00 	1.23548164e+01 	-1.13460099e+01 	1.21432614e+02 	1.17132559e-05 	1.07619710e+02 	
3.44000000e+00 	1.06567368e+00 	1.14490559e+00 	1.23977046e+01 	-1.13876365e+01 	1.21391337e+02 	1.15592068e-05 	1.07808857e+02 	
3.46000000e+00 	1.06692589e+00 	1.14607913e+00 	1.24402187e+01 	-1.14290270e+01 	1.21349791e+02 	1.13445602e-05 	1.08013785e+02 	
3.48000000e+00 	1.06817192e+00 	1.14726174e+00 	1.24823487e+01 	-1.14701707e+01 	1.21307979e+02 	1.11930364e-05 	1.08236172e+02 	
3.50000000e+00 	1.06941177e+00 	1.14845364e+00 	1.25240951e+01 	-1.15110653e+01 	1.21265901e+02 	1.10246371e-05 	1.08477823e+02 	
3.52000000e+00 	1.07064526e+00 	1.14965480e+00 	1.25654523e+01 	-1.15517014e+01 	1.21223561e+02 	1.08865007e-05 	1.08736959e+02 	
3.54000000e+00 	1.07187230e+00 	1.15086534e+00 	1.26064177e+01 	-1.15920734e+01 	1.21180962e+02 	1.07432609e-05 	1.09016751e+02 	
3.56000000e+00 	1.07309282e+00 	1.15208533e+00 	1.26469900e+01 	-1.16321769e+01 	1.21138108e+02 	1.05844852e-05 	1.09318238e+02 	
3.58000000e+00 	1.07430680e+00 	1.15331476e+00 	1.26871686e+01 	-1.16720082e+01 	1.21095002e+02 	1.04822138e-05 	1.09639983e+02 	
3.60000000e+00 	1.07551416e+00 	1.15455377e+00 	1.27269532e+01 	-1.17115643e+01 	1.21051644e+02 	1.03491176e-05 	1.09982313e+02 	
3.62000000e+00 	1.07671485e+00 	1.15580238e+00 	1.27663414e+01 	-1.17508396e+01 	1.21008037e+02 	1.02108421e-05 	1.10344760e+02 	
3.64000000e+00 	1.07790877e+00 	1.15706053e+00 	1.28053311e+01 	-1.17898291e+01 	1.20964184e+02 	1.01067922e-05 	1.10729747e+02 	
3.66000000e+00 	1.07909588e+00 	1.15832839e+00 	1.28439211e+01 	-1.18285286e+01 	1.20920087e+02 	9.95455850e-06 	1.11135300e+02 	
3.68000000e+00 	1.08027606e+00 	1.15960578e+00 	1.28821073e+01 	-1.18669309e+01 	1.20875745e+02 	9.85088327e-06 	1.11560564e+02 	
